Theta (deg)	Intensity	Phi_A (deg)	Micrometer (mm)
41.7308	1.3477	4.9679	13.0000
41.9124	1.3480	4.6916	12.7500
42.0940	1.3406	4.4154	12.5000
42.2755	1.3235	4.1392	12.2500
42.4571	1.3320	3.8631	12.0000
42.6387	1.3213	3.5871	11.7500
42.8203	1.3163	3.3111	11.5000
43.0018	1.3042	3.0351	11.2500
43.1834	1.2888	2.7592	11.0000
43.3650	1.2829	2.4832	10.7500
43.5466	1.2699	2.2073	10.5000
43.7282	1.2501	1.9315	10.2500
43.9098	1.2212	1.6556	10.0000
44.0915	1.2072	1.3797	9.7500
44.2732	1.1748	1.1038	9.5000
44.4548	1.1379	0.8279	9.2500
44.6365	1.0861	0.5520	9.0000
44.7092	1.0605	0.4416	8.9000
44.7819	1.0453	0.3312	8.8000
44.8546	1.0060	0.2208	8.7000
44.9273	0.9987	0.1104	8.6000
45.0000	0.9739	0.0000	8.5000
45.0727	0.9476	-0.1104	8.4000
45.1454	0.9145	-0.2208	8.3000
45.2181	0.8776	-0.3312	8.2000
45.2909	0.8562	-0.4417	8.1000
45.3636	0.8268	-0.5521	8.0000
45.4363	0.7948	-0.6626	7.9000
45.5090	0.7586	-0.7730	7.8000
45.5818	0.7272	-0.8835	7.7000
45.6545	0.6893	-0.9940	7.6000
45.7273	0.6577	-1.1044	7.5000
45.8000	0.6226	-1.2149	7.4000
45.8728	0.5889	-1.3254	7.3000
45.9456	0.5447	-1.4360	7.2000
46.0183	0.5171	-1.5465	7.1000
46.0911	0.4777	-1.6570	7.0000
46.1639	0.4513	-1.7676	6.9000
46.2367	0.4215	-1.8781	6.8000
46.3095	0.3900	-1.9887	6.7000
46.3823	0.3642	-2.0993	6.6000
46.4551	0.3353	-2.2099	6.5000
46.5279	0.3135	-2.3205	6.4000
46.6007	0.2928	-2.4312	6.3000
46.6736	0.2722	-2.5418	6.2000
46.7464	0.2563	-2.6525	6.1000
46.8192	0.2423	-2.7632	6.0000
46.8921	0.2286	-2.8739	5.9000
46.9649	0.2195	-2.9846	5.8000
47.0378	0.2118	-3.0954	5.7000
47.1107	0.2066	-3.2061	5.6000
47.1836	0.2048	-3.3169	5.5000
47.2565	0.2037	-3.4277	5.4000
47.3293	0.2050	-3.5385	5.3000
47.4023	0.2079	-3.6493	5.2000
47.4752	0.2116	-3.7602	5.1000
47.5481	0.2174	-3.8711	5.0000
47.6210	0.2254	-3.9819	4.9000
47.6940	0.2317	-4.0929	4.8000
47.7669	0.2432	-4.2038	4.7000
47.8399	0.2525	-4.3148	4.6000
47.9128	0.2629	-4.4257	4.5000
47.9858	0.2735	-4.5368	4.4000
48.0588	0.2855	-4.6478	4.3000
48.1318	0.3007	-4.7588	4.2000
48.2048	0.3134	-4.8699	4.1000
48.2778	0.3249	-4.9810	4.0000
48.3508	0.3383	-5.0921	3.9000
48.4238	0.3518	-5.2033	3.8000
48.4969	0.3639	-5.3145	3.7000
48.5699	0.3758	-5.4257	3.6000
48.6430	0.3899	-5.5369	3.5000
48.7161	0.4026	-5.6482	3.4000
48.7891	0.4167	-5.7595	3.3000
48.8622	0.4290	-5.8708	3.2000
48.9353	0.4408	-5.9821	3.1000
49.0084	0.4532	-6.0935	3.0000
