Theta (deg)	Intensity	Phi_A (deg)	Micrometer (mm)
42.6387	1.3941	3.5871	11.7500
42.8203	1.3977	3.3111	11.5000
43.0018	1.4072	3.0351	11.2500
43.1834	1.4041	2.7592	11.0000
43.3650	1.4030	2.4832	10.7500
43.5466	1.4073	2.2073	10.5000
43.7282	1.3970	1.9315	10.2500
43.9098	1.4052	1.6556	10.0000
44.0915	1.4035	1.3797	9.7500
44.2732	1.4043	1.1038	9.5000
44.4548	1.3976	0.8279	9.2500
44.6365	1.3939	0.5520	9.0000
44.8183	1.3864	0.2760	8.7500
45.0000	1.3799	0.0000	8.5000
45.1818	1.3682	-0.2760	8.2500
45.3636	1.3558	-0.5521	8.0000
45.5454	1.3340	-0.8282	7.7500
45.7273	1.3032	-1.1044	7.5000
45.9092	1.2627	-1.3807	7.2500
46.0911	1.2158	-1.6570	7.0000
46.2731	1.1474	-1.9334	6.7500
46.4551	1.0574	-2.2099	6.5000
46.6371	0.9459	-2.4865	6.2500
46.8192	0.7986	-2.7632	6.0000
47.0014	0.6292	-3.0400	5.7500
47.1836	0.4495	-3.3169	5.5000
47.2565	0.3776	-3.4277	5.4000
47.3293	0.3101	-3.5385	5.3000
47.4023	0.2472	-3.6493	5.2000
47.4752	0.1953	-3.7602	5.1000
47.5481	0.1518	-3.8711	5.0000
47.6210	0.1181	-3.9819	4.9000
47.6940	0.0942	-4.0929	4.8000
47.7669	0.0827	-4.2038	4.7000
47.8399	0.0789	-4.3148	4.6000
47.9128	0.0859	-4.4257	4.5000
47.9858	0.0994	-4.5368	4.4000
48.0588	0.1229	-4.6478	4.3000
48.1318	0.1495	-4.7588	4.2000
48.2048	0.1804	-4.8699	4.1000
48.2778	0.2135	-4.9810	4.0000
48.3508	0.2539	-5.0921	3.9000
48.4238	0.2900	-5.2033	3.8000
48.4969	0.3279	-5.3145	3.7000
48.5699	0.3659	-5.4257	3.6000
48.6430	0.4041	-5.5369	3.5000
48.8257	0.4922	-5.8151	3.2500
49.0084	0.5741	-6.0935	3.0000
49.1913	0.6405	-6.3721	2.7500
