Theta (deg)	Intensity	Phi_A (deg)	Micrometer (mm)
41.7222	1.1750	4.9679	12.7500
41.9042	1.1767	4.6916	12.5000
42.0863	1.1751	4.4154	12.2500
42.2683	1.1744	4.1392	12.0000
42.4504	1.1768	3.8631	13.0000
42.6324	1.1732	3.5871	11.7500
42.8145	1.1650	3.3111	11.5000
42.9966	1.1610	3.0351	11.2500
43.1786	1.1465	2.7592	11.0000
43.3607	1.1177	2.4832	10.7500
43.5428	1.0732	2.2073	10.5000
43.7249	0.9930	1.9315	10.2500
43.9070	0.8454	1.6556	10.0000
43.9798	0.7518	1.5452	9.9000
44.0527	0.6451	1.4349	9.8000
44.0891	0.5943	1.3797	9.7500
44.1255	0.5244	1.3245	9.7000
44.1984	0.3941	1.2142	9.6000
44.2712	0.2702	1.1038	9.5000
44.3441	0.1640	0.9934	9.4000
44.4170	0.0971	0.8831	9.3000
44.4898	0.0806	0.7727	9.2000
44.5627	0.1072	0.6623	9.1000
44.6356	0.1594	0.5520	9.0000
44.7084	0.2308	0.4416	8.9000
44.7813	0.3107	0.3312	8.8000
44.8542	0.3826	0.2208	8.7000
44.9271	0.4548	0.1104	8.6000
45.0000	0.5155	0.0000	8.5000
45.1823	0.6270	-0.2760	8.2500
45.3645	0.7076	-0.5521	8.0000
45.5468	0.7600	-0.8282	7.7500
45.7292	0.8010	-1.1044	7.5000
45.9116	0.8274	-1.3807	7.2500
46.0940	0.8553	-1.6570	7.0000
46.2764	0.8755	-1.9334	6.7500
46.4589	0.8976	-2.2099	6.5000
46.6415	0.9138	-2.4865	6.2500
46.8240	0.9289	-2.7632	6.0000
47.0067	0.9394	-3.0400	5.7500
47.1893	0.9489	-3.3169	5.5000
47.1893	0.9489	-3.3169	5.5000
47.3721	0.9595	-3.5939	5.2500
47.5548	0.9683	-3.8711	5.0000
47.7376	0.9743	-4.1483	4.7500
47.9205	0.9828	-4.4257	4.5000
48.1035	0.9905	-4.7033	4.2500
48.2864	0.9977	-4.9810	4.0000
48.4695	1.0038	-5.2589	3.7500
48.6526	1.0092	-5.5369	3.5000
48.8358	1.0158	-5.8151	3.2500
49.0190	1.0218	-6.0935	3.0000
